x1	Amplitude	Phase
-30.0	0.090856752157	-1.54253888555
-29.9939993999	0.0908793738366	-1.54254216585
-29.9879987999	0.0909472423886	-1.54253699467
-29.9819981998	0.0910603106123	-1.54250093306
-29.9759975998	0.091218461807	-1.54241175499
-29.9699969997	0.0914215107731	-1.54224757842
-29.9639963996	0.091669205306	-1.54198699135
-29.9579957996	0.0919612281584	-1.54160917103
-29.9519951995	0.0922971994364	-1.5410939947
-29.9459945995	0.0926766793906	-1.54042214044
-29.9399939994	0.0930991715555	-1.53957517726
-29.9339933993	0.0935641261901	-1.53853564323
-29.9279927993	0.0940709439662	-1.53728711138
-29.9219921992	0.0946189798519	-1.53581424292
-29.9159915992	0.0952075471378	-1.53410282779
-29.9099909991	0.0958359215524	-1.53213981278
-29.903990399	0.0965033454178	-1.52991331753
-29.897989799	0.0972090317979	-1.52741263925
-29.8919891989	0.0979521685973	-1.52462824676
-29.8859885989	0.0987319225699	-1.52155176481
-29.8799879988	0.0995474432049	-1.51817594969
-29.8739873987	0.10039786646	-1.51449465722
-29.8679867987	0.101282318318	-1.51050280408
-29.8619861986	0.102199918146	-1.50619632369
-29.8559855986	0.103149781845	-1.50157211757
-29.8499849985	0.104131024777	-1.49662800332
-29.8439843984	0.105142764467	-1.49136266005
-29.8379837984	0.106184123067	-1.48577557215
-29.8319831983	0.107254229605	-1.47986697227
-29.8259825983	0.108352221992	-1.47363778412
-29.8199819982	0.109477248821	-1.4670895658
-29.8139813981	0.110628470949	-1.46022445413
-29.8079807981	0.111805062875	-1.45304511039
-29.801980198	0.113006213931	-1.44555466799
-29.795979598	0.114231129289	-1.43775668222
-29.7899789979	0.115479030797	-1.42965508234
-29.7839783978	0.116749157668	-1.42125412626
-29.7779777978	0.118040767015	-1.41255835774
-29.7719771977	0.119353134259	-1.40357256642
-29.7659765977	0.120685553423	-1.39430175042
-29.7599759976	0.122037337305	-1.38475108176
-29.7539753975	0.123407817569	-1.37492587433
-29.7479747975	0.124796344739	-1.36483155454
-29.7419741974	0.126202288124	-1.35447363438
-29.7359735974	0.127625035673	-1.34385768692
-29.7299729973	0.129063993769	-1.33298932409
-29.7239723972	0.130518586982	-1.32187417659
-29.7179717972	0.131988257765	-1.31051787587
-29.7119711971	0.133472466129	-1.29892603801
-29.7059705971	0.13497068928	-1.28710424935
-29.699969997	0.136482421226	-1.27505805382
-29.6939693969	0.13800717238	-1.26279294177
-29.6879687969	0.139544469131	-1.25031434021
-29.6819681968	0.141093853415	-1.23762760439
-29.6759675968	0.142654882273	-1.22473801051
-29.6699669967	0.144227127407	-1.21165074952
-29.6639663966	0.14581017473	-1.198370922
-29.6579657966	0.147403623923	-1.18490353377
-29.6519651965	0.149007087987	-1.17125349246
-29.6459645965	0.150620192804	-1.15742560474
-29.6399639964	0.152242576701	-1.14342457418
-29.6339633963	0.153873890025	-1.12925499976
-29.6279627963	0.155513794719	-1.11492137484
-29.6219621962	0.157161963913	-1.10042808664
-29.6159615962	0.158818081521	-1.08577941612
-29.6099609961	0.160481841849	-1.07097953818
-29.603960396	0.162152949216	-1.05603252224
-29.597959796	0.163831117578	-1.04094233305
-29.5919591959	0.165516070175	-1.02571283178
-29.5859585959	0.167207539177	-1.01034777726
-29.5799579958	0.168905265346	-0.994850827481
-29.5739573957	0.170608997716	-0.979225541141
-29.5679567957	0.172318493269	-0.963475379416
-29.5619561956	0.174033516638	-0.947603707773
-29.5559555956	0.175753839808	-0.931613797893
-29.5499549955	0.177479241836	-0.915508829654
-29.5439543954	0.179209508576	-0.899291893165
-29.5379537954	0.180944432418	-0.882965990845
-29.5319531953	0.182683812038	-0.86653403952
-29.5259525953	0.184427452147	-0.84999887254
-29.5199519952	0.186175163268	-0.833363241903
-29.5139513951	0.187926761503	-0.816629820372
-29.5079507951	0.189682068321	-0.799801203587
-29.501950195	0.191440910351	-0.782879912158
-29.495949595	0.193203119183	-0.76586839374
-29.4899489949	0.194968531176	-0.748769025082
-29.4839483948	0.196736987278	-0.731584114042
-29.4779477948	0.198508332844	-0.714315901576
-29.4719471947	0.200282417474	-0.696966563687
-29.4659465947	0.202059094849	-0.679538213334
-29.4599459946	0.203838222573	-0.662032902308
-29.4539453945	0.205619662029	-0.644452623062
-29.4479447945	0.207403278232	-0.626799310499
-29.4419441944	0.209188939696	-0.609074843719
-29.4359435944	0.210976518297	-0.591281047718
-29.4299429943	0.212765889155	-0.573419695051
-29.4239423942	0.214556930507	-0.555492507441
-29.4179417942	0.216349523592	-0.537501157352
-29.4119411941	0.218143552545	-0.519447269515
-29.4059405941	0.219938904283	-0.501332422409
-29.399939994	0.22173546841	-0.483158149705
-29.3939393939	0.223533137114	-0.464925941656
-29.3879387939	0.225331805074	-0.446637246462
-29.3819381938	0.227131369374	-0.428293471579
-29.3759375938	0.228931729411	-0.409895984994
-29.3699369937	0.230732786815	-0.391446116461
-29.3639363936	0.232534445369	-0.3729451587
-29.3579357936	0.234336610933	-0.354394368551
-29.3519351935	0.236139191371	-0.335794968101
-29.3459345935	0.237942096479	-0.317148145769
-29.3399339934	0.239745237919	-0.298455057354
-29.3339333933	0.241548529154	-0.279716827059
-29.3279327933	0.243351885387	-0.260934548471
-29.3219321932	0.245155223497	-0.242109285514
-29.3159315932	0.246958461987	-0.223242073373
-29.3099309931	0.248761520927	-0.204333919383
-29.303930393	0.2505643219	-0.185385803891
-29.297929793	0.252366787951	-0.166398681091
-29.2919291929	0.254168843542	-0.147373479829
-29.2859285929	0.255970414499	-0.128311104381
-29.2799279928	0.257771427972	-0.10921243521
-29.2739273927	0.25957181239	-0.0900783296936
-29.2679267927	0.261371497418	-0.0709096228252
-29.2619261926	0.263170413921	-0.0517071278995
-29.2559255926	0.264968493919	-0.0324716371686
-29.2499249925	0.266765670556	-0.0132039224797
-29.2439243924	0.268561878063	0.00609526410992
-29.2379237924	0.270357051719	0.0254251897373
-29.2319231923	0.272151127827	0.0447851401584
-29.2259225923	0.273944043674	0.0641744191914
-29.2199219922	0.275735737503	0.0835923481792
-29.2139213921	0.277526148487	0.103038265468
-29.2079207921	0.279315216696	0.122511525907
-29.201920192	0.281102883073	0.142011500355
-29.195919592	0.282889089406	0.16153757522
-29.1899189919	0.284673778303	0.181089151995
-29.1839183918	0.286456893169	0.20066564682
-29.1779177918	0.28823837818	0.220266490061
-29.1719171917	0.290018178264	0.239891125891
-29.1659165917	0.291796239077	0.259539011896
-29.1599159916	0.29357250698	0.279209618686
-29.1539153915	0.295346929023	0.298902429525
-29.1479147915	0.297119452925	0.318616939969
-29.1419141914	0.298890027051	0.338352657515
-29.1359135914	0.300658600398	0.358109101263
-29.1299129913	0.302425122578	0.37788580159
-29.1239123912	0.304189543796	0.397682299832
-29.1179117912	0.30595181484	0.417498147977
-29.1119111911	0.307711887061	0.43733290837
-29.1059105911	0.30946971236	0.45718615342
-29.099909991	0.311225243174	0.477057465329
-29.0939093909	0.312978432458	0.496946435814
-29.0879087909	0.314729233676	0.516852665852
-29.0819081908	0.316477600787	0.536775765426
-29.0759075908	0.318223488228	0.556715353274
-29.0699069907	0.319966850908	0.576671056658
-29.0639063906	0.321707644192	0.596642511132
-29.0579057906	0.323445823891	0.616629360318
-29.0519051905	0.325181346252	0.636631255687
-29.0459045905	0.326914167944	0.656647856355
-29.0399039904	0.328644246051	0.676678828877
-29.0339033903	0.330371538061	0.696723847049
-29.0279027903	0.332096001856	0.716782591716
-29.0219021902	0.333817595704	0.736854750593
-29.0159015902	0.335536278246	0.756940018078
-29.0099009901	0.337252008495	0.77703809508
-29.00390039	0.338964745819	0.797148688854
-28.99789979	0.340674449938	0.81727151283
-28.9918991899	0.342381080915	0.83740628646
-28.9858985899	0.344084599149	0.857552735059
-28.9798979898	0.345784965367	0.877710589662
-28.9738973897	0.347482140615	0.897879586868
-28.9678967897	0.349176086256	0.918059468709
-28.9618961896	0.350866763958	0.938249982507
-28.9558955896	0.35255413569	0.958450880744
-28.9498949895	0.354238163718	0.978661920931
-28.9438943894	0.355918810594	0.998882865483
-28.9378937894	0.357596039154	1.0191134816
-28.9318931893	0.359269812512	1.03935354114
-28.9258925893	0.360940094053	1.05960282052
-28.9198919892	0.362606847428	1.07986110058
-28.9138913891	0.36427003655	1.10012816651
-28.9078907891	0.365929625588	1.1204038077
-28.901890189	0.367585578962	1.14068781768
-28.895889589	0.369237861341	1.16097999399
-28.8898889889	0.370886437634	1.18128013811
-28.8838883888	0.37253127299	1.20158805533
-28.8778877888	0.37417233279	1.22190355469
-28.8718871887	0.375809582647	1.24222644888
-28.8658865887	0.377442988397	1.26255655417
-28.8598859886	0.3790725161	1.28289369028
-28.8538853885	0.380698132034	1.30323768034
-28.8478847885	0.38231980269	1.32358835082
-28.8418841884	0.383937494773	1.34394553139
-28.8358835884	0.385551175193	1.36430905492
-28.8298829883	0.387160811065	1.38467875736
-28.8238823882	0.388766369708	1.40505447768
-28.8178817882	0.390367818635	1.42543605781
-28.8118811881	0.391965125556	1.44582334256
-28.8058805881	0.393558258375	1.46621617954
-28.799879988	0.395147185184	1.48661441916
-28.7938793879	0.396731874261	1.50701791446
-28.7878787879	0.398312294069	1.52742652118
-28.7818781878	0.399888413254	1.54784009757
-28.7758775878	0.401460200639	1.56825850444
-28.7698769877	0.403027625224	-1.55291104856
-28.7638763876	0.404590656185	-1.53248338858
-28.7578757876	0.406149262869	-1.51205130121
-28.7518751875	0.407703414794	-1.49161491615
-28.7458745875	0.409253081644	-1.47117436083
-28.7398739874	0.410798233271	-1.45072976051
-28.7338733873	0.412338839689	-1.43028123828
-28.7278727873	0.413874871076	-1.40982891513
-28.7218721872	0.415406297768	-1.38937290999
-28.7158715872	0.41693309026	-1.36891333977
-28.7098709871	0.418455219204	-1.34845031942
-28.703870387	0.419972655407	-1.32798396195
-28.697869787	0.421485369828	-1.30751437849
-28.6918691869	0.422993333578	-1.28704167832
-28.6858685869	0.42449651792	-1.26656596892
-28.6798679868	0.425994894261	-1.24608735597
-28.6738673867	0.42748843416	-1.22560594345
-28.6678667867	0.428977109319	-1.20512183363
-28.6618661866	0.430460891585	-1.18463512712
-28.6558655866	0.431939752947	-1.1641459229
-28.6498649865	0.433413665537	-1.14365431836
-28.6438643864	0.434882601628	-1.12316040933
-28.6378637864	0.436346533629	-1.10266429012
-28.6318631863	0.437805434091	-1.08216605352
-28.6258625863	0.439259275701	-1.06166579089
-28.6198619862	0.44070803128	-1.04116359212
-28.6138613861	0.442151673785	-1.02065954571
-28.6078607861	0.443590176307	-1.00015373879
-28.601860186	0.445023512071	-0.979646257127
-28.595859586	0.446451654431	-0.95913718517
-28.5898589859	0.447874576875	-0.938626606071
-28.5838583858	0.449292253018	-0.918114601713
-28.5778577858	0.450704656607	-0.897601252734
-28.5718571857	0.452111761515	-0.877086638553
-28.5658565857	0.453513541745	-0.856570837392
-28.5598559856	0.454909971425	-0.836053926301
-28.5538553855	0.456301024809	-0.815535981184
-28.5478547855	0.457686676276	-0.795017076814
-28.5418541854	0.459066900331	-0.774497286866
-28.5358535854	0.460441671603	-0.753976683927
-28.5298529853	0.461810964841	-0.733455339526
-28.5238523852	0.46317475492	-0.712933324152
-28.5178517852	0.464533016836	-0.69241070727
-28.5118511851	0.465885725705	-0.671887557348
-28.5058505851	0.467232856766	-0.651363941871
-28.499849985	0.468574385376	-0.630839927361
-28.4938493849	0.469910287013	-0.610315579399
-28.4878487849	0.471240537274	-0.589790962636
-28.4818481848	0.472565111874	-0.569266140817
-28.4758475848	0.473883986647	-0.548741176797
-28.4698469847	0.475197137545	-0.528216132555
-28.4638463846	0.476504540636	-0.507691069214
-28.4578457846	0.477806172105	-0.487166047056
-28.4518451845	0.479102008255	-0.466641125536
-28.4458445845	0.480392025502	-0.4461163633
-28.4398439844	0.481676200382	-0.425591818202
-28.4338433843	0.482954509543	-0.405067547311
-28.4278427843	0.484226929748	-0.384543606936
-28.4218421842	0.485493437876	-0.364020052631
-28.4158415842	0.486754010919	-0.343496939217
-28.4098409841	0.488008625985	-0.322974320788
-28.403840384	0.489257260293	-0.302452250731
-28.397839784	0.490499891177	-0.281930781734
-28.3918391839	0.491736496084	-0.261409965804
-28.3858385839	0.492967052573	-0.240889854272
-28.3798379838	0.494191538316	-0.220370497815
-28.3738373837	0.495409931099	-0.199851946461
-28.3678367837	0.496622208816	-0.179334249601
-28.3618361836	0.497828349478	-0.158817456005
-28.3558355836	0.499028331204	-0.138301613831
-28.3498349835	0.500222132226	-0.117786770635
-28.3438343834	0.501409730886	-0.0972729733816
-28.3378337834	0.50259110564	-0.0767602684585
-28.3318331833	0.503766235052	-0.0562487016833
-28.3258325833	0.504935097799	-0.0357383183148
-28.3198319832	0.506097672666	-0.0152291630637
-28.3138313831	0.507253938551	0.00527871989837
-28.3078307831	0.508403874462	0.0257852869285
-28.301830183	0.509547459517	0.0462904949034
-28.295829583	0.510684672943	0.0667943012099
-28.2898289829	0.511815494079	0.0872966637358
-28.2838283828	0.512939902373	0.107797540861
-28.2778277828	0.514057877382	0.128296891449
-28.2718271827	0.515169398775	0.148794674837
-28.2658265827	0.516274446328	0.16929085083
-28.2598259826	0.517372999929	0.189785379689
-28.2538253825	0.518465039575	0.210278222125
-28.2478247825	0.519550545371	0.230769339293
-28.2418241824	0.520629497534	0.251258692778
-28.2358235824	0.521701876388	0.271746244595
-28.2298229823	0.522767662367	0.292231957175
-28.2238223822	0.523826836016	0.31271579336
-28.2178217822	0.524879377987	0.333197716399
-28.2118211821	0.525925269043	0.353677689934
-28.2058205821	0.526964490056	0.374155677998
-28.199819982	0.527997022006	0.394631645007
-28.1938193819	0.529022845983	0.415105555753
-28.1878187819	0.530041943188	0.435577375397
-28.1818181818	0.531054294929	0.456047069462
-28.1758175818	0.532059882623	0.47651460383
-28.1698169817	0.533058687798	0.49697994473
-28.1638163816	0.534050692091	0.517443058736
-28.1578157816	0.535035877248	0.537903912759
-28.1518151815	0.536014225124	0.558362474044
-28.1458145815	0.536985717683	0.578818710158
-28.1398139814	0.537950337	0.599272588991
-28.1338133813	0.538908065259	0.619724078747
-28.1278127813	0.539858884752	0.640173147937
-28.1218121812	0.540802777882	0.660619765377
-28.1158115812	0.541739727161	0.68106390018
-28.1098109811	0.542669715211	0.701505521751
-28.103810381	0.543592724764	0.721944599783
-28.097809781	0.54450873866	0.742381104251
-28.0918091809	0.545417739853	0.762815005407
-28.0858085809	0.546319711401	0.783246273774
-28.0798079808	0.547214636477	0.803674880144
-28.0738073807	0.548102498361	0.824100795569
-28.0678067807	0.548983280444	0.84452399136
-28.0618061806	0.549856966229	0.864944439081
-28.0558055806	0.550723539326	0.885362110544
-28.0498049805	0.551582983458	0.905776977804
-28.0438043804	0.552435282456	0.926189013156
-28.0378037804	0.553280420265	0.94659818913
-28.0318031803	0.554118380937	0.967004478487
-28.0258025803	0.554949148637	0.987407854211
-28.0198019802	0.55577270764	1.00780828951
-28.0138013801	0.556589042332	1.02820575782
-28.0078007801	0.55739813721	1.04860023277
-28.00180018	0.558199976882	1.06899168821
-27.99579958	0.558994546068	1.08938009821
-27.9897989799	0.559781829597	1.10976543701
-27.9837983798	0.560561812413	1.13014767909
-27.9777977798	0.561334479568	1.15052679907
-27.9717971797	0.562099816227	1.17090277182
-27.9657965797	0.562857807669	1.19127557235
-27.9597959796	0.563608439281	1.21164517588
-27.9537953795	0.564351696565	1.2320115578
-27.9477947795	0.565087565133	1.25237469368
-27.9417941794	0.56581603071	1.27273455926
-27.9357935794	0.566537079135	1.29309113044
-27.9297929793	0.567250696356	1.31344438332
-27.9237923792	0.567956868437	1.33379429411
-27.9177917792	0.568655581553	1.35414083923
-27.9117911791	0.569346821992	1.37448399522
-27.9057905791	0.570030576154	1.39482373879
-27.899789979	0.570706830554	1.4151600468
-27.8937893789	0.57137557182	1.43549289625
-27.8877887789	0.572036786692	1.45582226429
-27.8817881788	0.572690462025	1.47614812821
-27.8757875788	0.573336584785	1.49647046542
-27.8697869787	0.573975142056	1.51678925348
-27.8637863786	0.574606121032	1.5371044701
-27.8577857786	0.575229509022	1.55741609307
-27.8517851785	0.575845293452	-1.56386855324
-27.8457845785	0.576453461857	-1.54356418358
-27.8397839784	0.577054001892	-1.52326347337
-27.8337833783	0.577646901323	-1.50296644429
-27.8277827783	0.578232148032	-1.48267311793
-27.8217821782	0.578809730015	-1.46238351577
-27.8157815782	0.579379635385	-1.44209765915
-27.8097809781	0.579941852367	-1.42181556935
-27.803780378	0.580496369304	-1.4015372675
-27.797779778	0.581043174653	-1.38126277467
-27.7917791779	0.581582256988	-1.3609921118
-27.7857785779	0.582113604997	-1.34072529976
-27.7797779778	0.582637207485	-1.3204623593
-27.7737773777	0.583153053373	-1.3002033111
-27.7677767777	0.583661131698	-1.27994817574
-27.7617761776	0.584161431612	-1.25969697373
-27.7557755776	0.584653942386	-1.23944972547
-27.7497749775	0.585138653406	-1.21920645131
-27.7437743774	0.585615554174	-1.1989671715
-27.7377737774	0.586084634312	-1.17873190623
-27.7317731773	0.586545883555	-1.15850067559
-27.7257725773	0.586999291758	-1.13827349962
-27.7197719772	0.587444848893	-1.1180503983
-27.7137713771	0.587882545049	-1.09783139152
-27.7077707771	0.588312370432	-1.07761649911
-27.701770177	0.588734315368	-1.05740574086
-27.695769577	0.589148370298	-1.03719913647
-27.6897689769	0.589554525784	-1.01699670561
-27.6837683768	0.589952772504	-0.996798467862
-27.6777677768	0.590343101256	-0.976604442789
-27.6717671767	0.590725502956	-0.956414649884
-27.6657665767	0.591099968639	-0.936229108595
-27.6597659766	0.591466489458	-0.916047838326
-27.6537653765	0.591825056685	-0.895870858434
-27.6477647765	0.592175661714	-0.875698188235
-27.6417641764	0.592518296055	-0.855529847004
-27.6357635764	0.592852951338	-0.835365853981
-27.6297629763	0.593179619315	-0.815206228367
-27.6237623762	0.593498291855	-0.795050989332
-27.6177617762	0.593808960948	-0.774900156013
-27.6117611761	0.594111618706	-0.754753747518
-27.6057605761	0.594406257358	-0.734611782928
-27.599759976	0.594692869256	-0.7144742813
-27.5937593759	0.594971446871	-0.694341261665
-27.5877587759	0.595241982796	-0.674212743036
-27.5817581758	0.595504469744	-0.654088744406
-27.5757575758	0.59575890055	-0.633969284751
-27.5697569757	0.596005268169	-0.613854383033
-27.5637563756	0.596243565678	-0.5937440582
-27.5577557756	0.596473786276	-0.573638329189
-27.5517551755	0.596695923282	-0.553537214932
-27.5457545755	0.59690997014	-0.53344073435
-27.5397539754	0.597115920413	-0.513348906362
-27.5337533753	0.597313767788	-0.493261749884
-27.5277527753	0.597503506073	-0.473179283832
-27.5217521752	0.597685129199	-0.453101527122
-27.5157515752	0.597858631221	-0.433028498676
-27.5097509751	0.598024006314	-0.412960217419
-27.503750375	0.598181248778	-0.392896702287
-27.497749775	0.598330353036	-0.372837972222
-27.4917491749	0.598471313633	-0.352784046182
-27.4857485749	0.59860412524	-0.332734943135
-27.4797479748	0.598728782649	-0.312690682066
-27.4737473747	0.598845280776	-0.29265128198
-27.4677467747	0.598953614663	-0.2726167619
-27.4617461746	0.599053779474	-0.252587140871
-27.4557455746	0.599145770498	-0.232562437962
-27.4497449745	0.599229583148	-0.212542672269
-27.4437443744	0.599305212962	-0.192527862917
-27.4377437744	0.599372655603	-0.172518029058
-27.4317431743	0.599431906858	-0.15251318988
-27.4257425743	0.599482962639	-0.132513364604
-27.4197419742	0.599525818985	-0.112518572486
-27.4137413741	0.599560472059	-0.0925288328225
-27.4077407741	0.599586918148	-0.0725441649503
-27.401740174	0.599605153667	-0.0525645882489
