x1	Amplitude	Phase
-30.0	0.0545481157052	0.540578341725
-29.9939993999	0.0545858194929	0.540583973919
-29.9879987999	0.0546988332305	0.540670085864
-29.9819981998	0.0548867700833	0.540939144764
-29.9759975998	0.055148930374	0.541490487821
-29.9699969997	0.0554843162465	0.542418782864
-29.9639963996	0.0558916517754	0.543812672887
-29.9579957996	0.0563694076222	0.545753648385
-29.9519951995	0.0569158291822	0.548315175965
-29.9459945995	0.0575289671021	0.551562095537
-29.9399939994	0.0582067090482	0.555550283165
-29.9339933993	0.058946811674	0.560326563458
-29.9279927993	0.0597469318558	0.565928845066
-29.9219921992	0.060604656418	0.572386445886
-29.9159915992	0.0615175297424	0.579720570766
-29.9099909991	0.0624830788272	0.587944903725
-29.903990399	0.0634988355304	0.597066278224
-29.897989799	0.0645623558744	0.607085392395
-29.8919891989	0.0656712364155	0.61799754052
-29.8859885989	0.0668231277772	0.629793337136
-29.8799879988	0.0680157455207	0.642459415145
-29.8739873987	0.0692468785752	0.655979084226
-29.8679867987	0.0705143954769	0.670332940141
-29.8619861986	0.0718162486825	0.685499419265
-29.8559855986	0.0731504772198	0.70145529578
-29.8499849985	0.0745152079265	0.718176121316
-29.8439843984	0.0759086555166	0.735636608723
-29.8379837984	0.077329121686	0.753810962873
-29.8319831983	0.0787749934532	0.772673162295
-29.8259825983	0.0802447409015	0.792197195923
-29.8199819982	0.0817369144698	0.812357259427
-29.8139813981	0.0832501419164	0.833127915652
-29.8079807981	0.0847831250588	0.854484223492
-29.801980198	0.0863346363782	0.876401839332
-29.795979598	0.0879035155561	0.898857094836
-29.7899789979	0.0894886660032	0.921827054556
-29.7839783978	0.0910890514217	0.945289556454
-29.7779777978	0.0927036924388	0.969223238108
-29.7719771977	0.0943316633353	0.993607551016
-29.7659765977	0.0959720888903	1.01842276511
-29.7599759976	0.0976241413537	1.0436499653
-29.7539753975	0.099287037556	1.06927104164
-29.7479747975	0.100960036161	1.09526867442
-29.7419741974	0.102642435062	1.12162631532
-29.7359735974	0.10433356892	1.14832816559
-29.7299729973	0.106032806847	1.17535915206
-29.7239723972	0.107739550223	1.20270490159
-29.7179717972	0.10945323065	1.23035171456
-29.7119711971	0.111173308026	1.25828653785
-29.7059705971	0.112899268754	1.28649693759
-29.699969997	0.114630624053	1.31497107208
-29.6939693969	0.116366908391	1.343697665
-29.6879687969	0.118107678008	1.37266597922
-29.6819681968	0.119852509554	1.40186579116
-29.6759675968	0.121600998802	1.43128736608
-29.6699669967	0.123352759454	1.46092143401
-29.6639663966	0.125107422034	1.49075916677
-29.6579657966	0.12686463284	1.52079215574
-29.6519651965	0.128624052985	1.55101239071
-29.6459645965	0.130385357484	-1.56018041404
-29.6399639964	0.132148234422	-1.52960822469
-29.6339633963	0.13391238416	-1.49887062781
-29.6279627963	0.135677518607	-1.4679742336
-29.6219621962	0.137443360536	-1.43692534604
-29.6159615962	0.139209642945	-1.40572997873
-29.6099609961	0.140976108463	-1.37439386988
-29.603960396	0.142742508794	-1.34292249648
-29.597959796	0.144508604197	-1.31132108778
-29.5919591959	0.146274163002	-1.279594638
-29.5859585959	0.148038961157	-1.24774791838
-29.5799579958	0.149802781804	-1.21578548859
-29.5739573957	0.151565414885	-1.1837117075
-29.5679567957	0.153326656767	-1.15153074338
-29.5619561956	0.155086309901	-1.11924658355
-29.5559555956	0.156844182491	-1.08686304347
-29.5499549955	0.158600088198	-1.05438377536
-29.5439543954	0.160353845847	-1.02181227635
-29.5379537954	0.162105279166	-0.989151896188
-29.5319531953	0.163854216531	-0.956405844491
-29.5259525953	0.165600490736	-0.923577197658
-29.5199519952	0.167343938769	-0.890668905361
-29.5139513951	0.169084401606	-0.857683796707
-29.5079507951	0.17082172402	-0.824624586061
-29.501950195	0.172555754391	-0.791493878551
-29.495949595	0.174286344542	-0.758294175287
-29.4899489949	0.176013349575	-0.72502787829
-29.4839483948	0.177736627716	-0.691697295169
-29.4779477948	0.179456040178	-0.658304643538
-29.4719471947	0.181171451023	-0.62485205521
-29.4659465947	0.182882727034	-0.591341580163
-29.4599459946	0.184589737601	-0.557775190305
-29.4539453945	0.186292354604	-0.524154783033
-29.4479447945	0.187990452307	-0.49048218462
-29.4419441944	0.18968390726	-0.456759153415
-29.4359435944	0.191372598207	-0.422987382887
-29.4299429943	0.19305640599	-0.389168504512
-29.4239423942	0.194735213472	-0.355304090507
-29.4179417942	0.196408905454	-0.321395656438
-29.4119411941	0.1980773686	-0.287444663684
-29.4059405941	0.199740491368	-0.253452521787
-29.399939994	0.201398163942	-0.219420590684
-29.3939393939	0.203050278169	-0.185350182823
-29.3879387939	0.204696727497	-0.15124256518
-29.3819381938	0.206337406923	-0.11709896118
-29.3759375938	0.207972212934	-0.0829205525169
-29.3699369937	0.209601043461	-0.0487084808951
-29.3639363936	0.211223797826	-0.0144638496783
-29.3579357936	0.212840376703	0.0198122745338
-29.3519351935	0.214450682068	0.0541188604056
-29.3459345935	0.216054617161	0.0884549104367
-29.3399339934	0.21765208645	0.122819459599
-29.3339333933	0.219242995589	0.15721157404
-29.3279327933	0.220827251389	0.191630349839
-29.3219321932	0.222404761779	0.226074911829
-29.3159315932	0.223975435778	0.26054441247
-29.3099309931	0.225539183466	0.295038030768
-29.303930393	0.227095915955	0.329554971247
-29.297929793	0.228645545361	0.364094462973
-29.2919291929	0.230187984778	0.398655758607
-29.2859285929	0.231723148257	0.433238133516
-29.2799279928	0.233250950782	0.467840884911
-29.2739273927	0.234771308247	0.502463331026
-29.2679267927	0.236284137435	0.537104810341
-29.2619261926	0.237789356001	0.571764680823
-29.2559255926	0.23928688245	0.606442319215
-29.2499249925	0.240776636124	0.641137120345
-29.2439243924	0.242258537179	0.675848496467
-29.2379237924	0.243732506574	0.710575876635
-29.2319231923	0.245198466053	0.745318706093
-29.2259225923	0.246656338135	0.780076445703
-29.2199219922	0.248106046092	0.814848571382
-29.2139213921	0.249547513944	0.849634573579
-29.2079207921	0.250980666444	0.884433956757
-29.201920192	0.252405429063	0.919246238907
-29.195919592	0.253821727986	0.954070951078
-29.1899189919	0.255229490093	0.988907636927
-29.1839183918	0.256628642956	1.02375585228
-29.1779177918	0.258019114824	1.05861516474
-29.1719171917	0.259400834618	1.09348515323
-29.1659165917	0.26077373192	1.12836540769
-29.1599159916	0.262137736966	1.16325552865
-29.1539153915	0.263492780639	1.19815512688
-29.1479147915	0.264838794457	1.23306382308
-29.1419141914	0.266175710573	1.26798124751
-29.1359135914	0.267503461762	1.30290703974
-29.1299129913	0.26882198142	1.33784084825
-29.1239123912	0.270131203554	1.37278233024
-29.1179117912	0.271431062778	1.40773115127
-29.1119111911	0.272721494308	1.44268698503
-29.1059105911	0.274002433956	1.47764951309
-29.099909991	0.275273818126	1.51261842459
-29.0939093909	0.276535583808	1.54759341606
-29.0879087909	0.277787668576	-1.55901846242
-29.0819081908	0.279030010584	-1.5240321931
-29.0759075908	0.280262548557	-1.48904071232
-29.0699069907	0.281485221795	-1.45404429632
-29.0639063906	0.282697970165	-1.4190432151
-29.0579057906	0.283900734097	-1.38403773253
-29.0519051905	0.285093454584	-1.34902810661
-29.0459045905	0.286276073177	-1.3140145896
-29.0399039904	0.287448531985	-1.27899742826
-29.0339033903	0.288610773669	-1.24397686393
-29.0279027903	0.28976274144	-1.20895313276
-29.0219021902	0.29090437906	-1.17392646586
-29.0159015902	0.292035630838	-1.13889708942
-29.0099009901	0.293156441626	-1.1038652249
-29.00390039	0.294266756822	-1.06883108913
-28.99789979	0.295366522362	-1.03379489449
-28.9918991899	0.296455684725	-0.998756849003
-28.9858985899	0.297534190927	-0.963717156499
-28.9798979898	0.298601988522	-0.928676016716
-28.9738973897	0.299659025597	-0.893633625431
-28.9678967897	0.300705250779	-0.858590174577
-28.9618961896	0.301740613223	-0.823545852354
-28.9558955896	0.302765062622	-0.788500843338
-28.9498949895	0.303778549196	-0.75345532859
-28.9438943894	0.3047810237	-0.71840948576
-28.9378937894	0.305772437417	-0.68336348918
-28.9318931893	0.306752742161	-0.648317509971
-28.9258925893	0.307721890274	-0.613271716128
-28.9198919892	0.308679834629	-0.578226272617
-28.9138913891	0.309626528624	-0.543181341458
-28.9078907891	0.310561926187	-0.508137081818
-28.901890189	0.311485981775	-0.473093650086
-28.895889589	0.312398650368	-0.438051199962
-28.8898889889	0.313299887478	-0.403009882528
-28.8838883888	0.314189649141	-0.367969846329
-28.8778877888	0.31506789192	-0.332931237448
-28.8718871887	0.315934572907	-0.297894199572
-28.8658865887	0.316789649719	-0.262858874068
-28.8598859886	0.317633080501	-0.227825400048
-28.8538853885	0.318464823924	-0.192793914438
-28.8478847885	0.319284839187	-0.157764552038
-28.8418841884	0.320093086015	-0.122737445588
-28.8358835884	0.320889524664	-0.0877127258289
-28.8298829883	0.321674115913	-0.0526905215608
-28.8238823882	0.322446821072	-0.0176709597008
-28.8178817882	0.32320760198	0.01734583466
-28.8118811881	0.323956421002	0.0523597382015
-28.8058805881	0.324693241033	0.0873706293218
-28.799879988	0.325418025498	0.122378388084
-28.7938793879	0.326130738351	0.157382896166
-28.7878787879	0.326831344077	0.192384036811
-28.7818781878	0.327519807692	0.227381694778
-28.7758775878	0.32819609474	0.262375756294
-28.7698769877	0.3288601713	0.297366109012
-28.7638763876	0.329512003982	0.332352641959
-28.7578757876	0.330151559928	0.367335245498
-28.7518751875	0.330778806813	0.40231381128
-28.7458745875	0.331393712846	0.437288232206
-28.7398739874	0.331996246772	0.472258402382
-28.7338733873	0.332586377867	0.507224217082
-28.7278727873	0.333164075946	0.542185572706
-28.7218721872	0.333729311358	0.577142366739
-28.7158715872	0.33428205499	0.612094497721
-28.7098709871	0.334822278263	0.647041865201
-28.703870387	0.33534995314	0.681984369706
-28.697869787	0.335865052121	0.7169219127
-28.6918691869	0.336367548244	0.751854396556
-28.6858685869	0.336857415088	0.786781724514
-28.6798679868	0.337334626772	0.821703800655
-28.6738673867	0.337799157956	0.856620529857
-28.6678667867	0.338250983843	0.891531817775
-28.6618661866	0.338690080177	0.926437570797
-28.6558655866	0.339116423246	0.961337696019
-28.6498649865	0.339529989881	0.996232101213
-28.6438643864	0.339930757459	1.0311206948
-28.6378637864	0.340318703902	1.06600338579
-28.6318631863	0.340693807676	1.10088008382
-28.6258625863	0.341056047796	1.13575069905
-28.6198619862	0.341405403824	1.17061514217
-28.6138613861	0.341741855869	1.20547332437
-28.6078607861	0.34206538459	1.24032515731
-28.601860186	0.342375971194	1.27517055309
-28.595859586	0.342673597439	1.31000942421
-28.5898589859	0.342958245635	1.34484168357
-28.5838583858	0.343229898642	1.37966724442
-28.5778577858	0.343488539873	1.41448602035
-28.5718571857	0.343734153294	1.44929792523
-28.5658565857	0.343966723425	1.48410287322
-28.5598559856	0.344186235341	1.51890077875
-28.5538553855	0.344392674669	1.55369155643
-28.5478547855	0.344586027597	-1.55311753247
-28.5418541854	0.344766280865	-1.51834126579
-28.5358535854	0.344933421773	-1.48357238196
-28.5298529853	0.345087438178	-1.44881096571
-28.5238523852	0.345228318496	-1.41405710167
-28.5178517852	0.345356051702	-1.37931087442
-28.5118511851	0.345470627331	-1.34457236846
-28.5058505851	0.34557203548	-1.30984166831
-28.499849985	0.345660266806	-1.27511885849
-28.4938493849	0.345735312529	-1.24040402352
-28.4878487849	0.345797164432	-1.20569724802
-28.4818481848	0.345845814861	-1.17099861668
-28.4758475848	0.345881256726	-1.13630821428
-28.4698469847	0.345903483503	-1.10162612576
-28.4638463846	0.345912489233	-1.06695243621
-28.4578457846	0.345908268524	-1.03228723091
-28.4518451845	0.34589081655	-0.997630595348
-28.4458445845	0.345860129053	-0.962982615248
-28.4398439844	0.345816202344	-0.928343376602
-28.4338433843	0.345759033303	-0.893712965691
-28.4278427843	0.345688619378	-0.859091469113
-28.4218421842	0.34560495859	-0.824478973808
-28.4158415842	0.34550804953	-0.789875567087
-28.4098409841	0.345397891361	-0.755281336657
-28.403840384	0.345274483817	-0.72069637065
-28.397839784	0.345137827207	-0.686120757647
-28.3918391839	0.344987922414	-0.651554586713
-28.3858385839	0.344824770894	-0.616997947415
-28.3798379838	0.34464837468	-0.582450929859
-28.3738373837	0.34445873638	-0.547913624716
-28.3678367837	0.344255859177	-0.513386123247
-28.3618361836	0.344039746836	-0.478868517338
-28.3558355836	0.343810403694	-0.444360899529
-28.3498349835	0.343567834672	-0.40986336304
-28.3438343834	0.343312045267	-0.375376001807
-28.3378337834	0.343043041559	-0.340898910507
-28.3318331833	0.342760830205	-0.306432184596
-28.3258325833	0.342465418448	-0.271975920338
-28.3198319832	0.34215681411	-0.237530214837
-28.3138313831	0.341835025598	-0.203095166069
-28.3078307831	0.341500061901	-0.16867087292
-28.301830183	0.341151932596	-0.134257435217
-28.295829583	0.340790647842	-0.099854953763
-28.2898289829	0.340416218385	-0.0654635303728
-28.2838283828	0.340028655558	-0.03108326791
-28.2778277828	0.339627971283	0.00328572967685
-28.2718271827	0.339214178069	0.0376433573167
-28.2658265827	0.338787289014	0.0719895087773
-28.2598259826	0.338347317808	0.106324076626
-28.2538253825	0.337894278731	0.140646952192
-28.2478247825	0.337428186655	0.174958025519
-28.2418241824	0.336949057044	0.209257185334
-28.2358235824	0.336456905957	0.243544318995
-28.2298229823	0.335951750048	0.277819312452
-28.2238223822	0.335433606564	0.312082050202
-28.2178217822	0.334902493352	0.346332415243
-28.2118211821	0.334358428853	0.38057028903
-28.2058205821	0.33380143211	0.414795551422
-28.199819982	0.333231522762	0.449008080637
-28.1938193819	0.332648721053	0.483207753201
-28.1878187819	0.332053047825	0.517394443899
-28.1818181818	0.331444524523	0.551568025717
-28.1758175818	0.3308231732	0.585728369794
-28.1698169817	0.330189016509	0.619875345364
-28.1638163816	0.329542077713	0.654008819699
-28.1578157816	0.328882380681	0.688128658052
-28.1518151815	0.328209949892	0.722234723597
-28.1458145815	0.327524810435	0.756326877368
-28.1398139814	0.32682698801	0.790404978195
-28.1338133813	0.326116508932	0.824468882642
-28.1278127813	0.325393400128	0.858518444937
-28.1218121812	0.324657689145	0.892553516909
-28.1158115812	0.323909404143	0.926573947911
-28.1098109811	0.323148573904	0.960579584756
-28.103810381	0.322375227833	0.994570271635
-28.097809781	0.321589395953	1.02854585005
-28.0918091809	0.320791108916	1.06250615872
-28.0858085809	0.319980397998	1.09645103352
-28.0798079808	0.319157295106	1.13038030739
-28.0738073807	0.318321832773	1.16429381023
-28.0678067807	0.31747404417	1.19819136887
-28.0618061806	0.316613963098	1.23207280689
-28.0558055806	0.315741623999	1.26593794461
-28.0498049805	0.314857061952	1.29978659894
-28.0438043804	0.313960312677	1.33361858332
-28.0378037804	0.313051412541	1.36743370759
-28.0318031803	0.312130398557	1.40123177788
-28.0258025803	0.311197308386	1.43501259654
-28.0198019802	0.310252180343	1.46877596197
-28.0138013801	0.309295053399	1.50252166856
-28.0078007801	0.308325967182	1.53624950654
-28.00180018	0.307344961984	1.56995926186
-27.99579958	0.306352078759	-1.53794193752
-27.9897989799	0.305347359132	-1.5042690074
-27.9837983798	0.304330845399	-1.47061482904
-27.9777977798	0.303302580533	-1.4369796349
-27.9717971797	0.302262608185	-1.40336366242
-27.9657965797	0.301210972692	-1.36976715412
-27.9597959796	0.300147719077	-1.3361903578
-27.9537953795	0.299072893057	-1.30263352669
-27.9477947795	0.297986541045	-1.26909691958
-27.9417941794	0.296888710158	-1.23558080104
-27.9357935794	0.295779448217	-1.20208544156
-27.9297929793	0.294658803756	-1.16861111778
-27.9237923792	0.293526826029	-1.13515811261
-27.9177917792	0.292383565011	-1.1017267155
-27.9117911791	0.291229071405	-1.06831722259
-27.9057905791	0.290063396651	-1.03492993695
-27.899789979	0.288886592931	-1.00156516877
-27.8937893789	0.287698713174	-0.968223235646
-27.8877887789	0.286499811065	-0.934904462733
-27.8817881788	0.285289941053	-0.901609183049
-27.8757875788	0.284069158355	-0.868337737705
-27.8697869787	0.282837518967	-0.835090476168
-27.8637863786	0.281595079672	-0.801867756532
-27.8577857786	0.280341898048	-0.768669945801
-27.8517851785	0.279078032477	-0.73549742018
-27.8457845785	0.277803542155	-0.702350565378
-27.8397839784	0.276518487101	-0.669229776924
-27.8337833783	0.275222928169	-0.636135460491
-27.8277827783	0.273916927056	-0.603068032237
-27.8217821782	0.272600546317	-0.570027919156
-27.8157815782	0.271273849371	-0.537015559446
-27.8097809781	0.269936900521	-0.504031402889
-27.803780378	0.268589764961	-0.471075911245
-27.797779778	0.267232508791	-0.438149558666
-27.7917791779	0.265865199032	-0.40525283212
-27.7857785779	0.264487903638	-0.37238623184
-27.7797779778	0.263100691517	-0.339550271785
-27.7737773777	0.26170363254	-0.30674548012
-27.7677767777	0.260296797563	-0.273972399722
-27.7617761776	0.258880258443	-0.241231588697
-27.7557755776	0.257454088055	-0.208523620928
-27.7497749775	0.256018360314	-0.17584908664
-27.7437743774	0.254573150194	-0.143208592988
-27.7377737774	0.253118533748	-0.110602764676
-27.7317731773	0.251654588133	-0.0780322445953
-27.7257725773	0.25018139163	-0.0454976944931
-27.7197719772	0.248699023669	-0.0129997956715
-27.7137713771	0.247207564859	0.0194607502867
-27.7077707771	0.245707097009	0.0518832207591
-27.701770177	0.244197703158	0.0842668712912
-27.695769577	0.242679467605	0.11661093477
-27.6897689769	0.241152475941	0.148914620562
-27.6837683768	0.239616815079	0.181177113608
-27.6777677768	0.23807257329	0.213397573487
-27.6717671767	0.236519840238	0.245575133425
-27.6657665767	0.234958707016	0.277708899274
-27.6597659766	0.23338926619	0.309797948431
-27.6537653765	0.231811611835	0.341841328715
-27.6477647765	0.230225839582	0.373838057193
-27.6417641764	0.228632046661	0.405787118947
-27.6357635764	0.227030331954	0.437687465787
-27.6297629763	0.225420796039	0.469538014904
-27.6237623762	0.223803541249	0.501337647459
-27.6177617762	0.222178671726	0.533085207104
-27.6117611761	0.220546293478	0.564779498436
-27.6057605761	0.218906514442	0.596419285373
-27.599759976	0.217259444554	0.628003289456
-27.5937593759	0.215605195809	0.65953018807
-27.5877587759	0.213943882342	0.690998612572
-27.5817581758	0.212275620499	0.722407146333
-27.5757575758	0.210600528922	0.753754322687
-27.5697569757	0.208918728628	0.785038622772
-27.5637563756	0.207230343107	0.81625847327
-27.5577557756	0.205535498407	0.847412244032
-27.5517551755	0.203834323242	0.878498245587
-27.5457545755	0.202126949095	0.90951472652
-27.5397539754	0.200413510327	0.940459870732
-27.5337533753	0.198694144299	0.971331794545
-27.5277527753	0.196968991492	1.00212854367
-27.5217521752	0.195238195642	1.03284809003
-27.5157515752	0.19350190388	1.06348832838
-27.5097509751	0.191760266874	1.09404707283
-27.503750375	0.190013438991	1.12452205311
-27.497749775	0.188261578459	1.15491091068
-27.4917491749	0.186504847541	1.18521119466
-27.4857485749	0.184743412724	1.2154203575
-27.4797479748	0.18297744491	1.24553575048
-27.4737473747	0.181207119629	1.27555461891
-27.4677467747	0.179432617255	1.30547409718
-27.4617461746	0.177654123245	1.33529120344
-27.4557455746	0.175871828382	1.3650028341
-27.4497449745	0.174085929042	1.39460575798
-27.4437443744	0.172296627476	1.42409661021
-27.4377437744	0.1705041321	1.45347188577
-27.4317431743	0.168708657816	1.48272793274
-27.4257425743	0.16691042635	1.51186094516
-27.4197419742	0.1651096666	1.54086695558
-27.4137413741	0.163306615024	1.56974182719
-27.4077407741	0.16150151604	-1.543111408
-27.401740174	0.159694622453	-1.51451194348
-27.395739574	0.157886195915	-1.48605712881
